NCF,NCL,IUD,OC,freq
4.25012858322236,5.35464364401198,4.77720004077881,5.12517214426309,3
3.82983900127176,4.82010990953057,4.30244591222613,4.59847044369772,3.25
3.47785843339611,4.37290218331351,3.90506149858099,4.15920366007821,3.5
3.17931200323501,3.9939382086927,3.56816816278121,3.78805753451462,3.75
2.92328369234966,3.66922752555095,3.27938550866562,3.47091334425555,4
2.70159351459307,3.3882954831473,3.02944046275371,3.19722950883913,4.25
2.50799890275216,3.14315489658474,2.81125930427886,2.95898852692682,4.5
2.33765869659036,2.92761641870192,2.61935852046759,2.74999261505653,4.75
2.18676464722436,2.73681480691494,2.44942620481078,2.56538103994651,5
2.05228264606328,2.5668764951592,2.29802821275143,2.40129220344325,5.25
1.93176753116725,2.41468185187645,2.1623979438088,2.25462250439953,5.5
1.82322827793641,2.27769223294305,2.04028336899891,2.12285128462441,5.75
1.72502834897469,2.15382222055358,1.92983399163886,2.00391176618441,6
1.63581100078135,2.0413439164485,1.8295161447045,1.89609455131143,6.25
1.55444258210977,1.93881432992597,1.73804871006575,1.7979745400146,6.5
1.4799689875352,1.84501964289868,1.65435376547598,1.70835493053345,6.75
1.41158185543186,1.75893196949911,1.57751828583113,1.62622384532342,7
1.34859207050641,1.67967547695272,1.5067641286388,1.55072040110251,7.25
1.29040880256327,1.60649959797419,1.4414242965836,1.48110792198352,7.5
1.23652278426395,1.53875767042244,1.38092400515178,1.4167526111177,7.75
1.18649286548767,1.47588977011311,1.32476546351177,1.35710643353624,8
1.13993512282549,1.4174088120518,1.27251555036303,1.30169327688572,8.25
1.09651397806554,1.3628892203807,1.22379576546164,1.25009768484097,8.5
1.05593490847297,1.31195763276043,1.1782739838523,1.20195562542815,8.75
1.01793842744511,1.26428522773436,1.13565764849652,1.15694688065271,9
0.982295085927055,1.21958135566717,1.09568811843109,1.11478873675409,9.25
0.948801299274626,1.17758822343091,1.05813595117175,1.07523072457195,9.5
0.917275845656118,1.13807643604637,1.02279694502088,1.03805021292113,9.75
0.887556913898741,1.10084123922332,0.989488803002726,1.00304869885192,10
0.85949960331083,1.06569933826253,0.958048308059053,0.970048670343604,10.25
0.832973797203052,1.03248619333859,0.92832892088601,0.938890941626836,10.5
0.80786234688796,1.00105371044091,0.900198728850925,0.909432380639776,10.75
0.78405951482198,0.971268262446361,0.873538687890464,0.881543963343303,11
0.761469634990828,0.943008986859613,0.848241109979485,0.855109101690438,11.25
0.740005956174637,0.916166316386166,0.824208357292832,0.830022201669908,11.5
0.71958963977814,0.890640706230286,0.801351711031047,0.806187415560473,11.75
0.700148888792022,0.866341528243066,0.779590388406178,0.783517558751128,12
0.681618188408831,0.843186107097971,0.758850685762826,0.761933166518076,12.25
0.663937642040243,0.821098877785344,0.739065229457552,0.74136167024638,12.5
0.647052389119895,0.800010647082492,0.720172319103936,0.721736675932485,12.75
0.630912093243011,0.779857944420272,0.7021153502423,0.702997330551772,13
0.615470490981939,0.760582449847084,0.684842305515532,0.685087764139982,13.25
0.60068499319754,0.742130488679091,0.668305305107301,0.667956597311006,13.5
0.586516331897463,0.724452583994666,0.652460208591199,0.651556505489557,13.75
0.572928246719555,0.70750305943997,0.63726626150084,0.635843832434199,14
0.559887205978701,0.691239685908241,0.622685780903283,0.620778246710986,14.25
0.547362157937875,0.675623366575541,0.608683875074908,0.606322435688317,14.5
0.535324308573096,0.660617855551076,0.595228193067105,0.592441832390082,14.75
0.523746922616734,0.646189506055479,0.582288700530881,0.579104371191509,15
0.512605145100071,0.632307044595964,0.569837478662731,0.566280268890471,15.25
0.501875840987193,0.618941368079528,0.557848543553457,0.553941828152865,15.5
0.491537450808756,0.606065361208014,0.546297683579205,0.542063260727563,15.75
0.481569860474824,0.593653731843042,0.535162312779649,0.530620528165468,16
0.471954283677889,0.581682862323771,0.52442133843031,0.519591198067591,16.25
0.46267315549663,0.570130674973971,0.514055041241116,0.508954314136405,16.5
0.45371003598265,0.558976510253136,0.5040449668073,0.498690278519323,16.75
0.445049522660786,0.548201016194896,0.494373827106168,0.488780745118346,17
0.436677171001946,0.537786047939055,0.485025410978211,0.479208522700056,17.25
0.428579422038764,0.527714576305044,0.475984502656749,0.469957486778882,17.5
0.42074353639117,0.517970604477505,0.46723680751952,0.461012499367158,17.75
0.413157534053285,0.508539091981788,0.458768884330819,0.452359335790398,18
0.405810139366646,0.499405885220582,0.450568083325851,0.443984617857713,18.25
0.398690730669135,0.490557653924604,0.442622489561568,0.435875752757289,18.5
0.391789294165377,0.481981832941835,0.434920871021933,0.428020877116852,18.75
0.385096381613902,0.473666568852633,0.427452631021383,0.420408805730471,19
0.378603071469887,0.465600670953278,0.420207764499409,0.413028984507036,19.25
0.372300933160673,0.457773566199171,0.413176817842422,0.405871447243255,19.5
0.366181994205091,0.450175257741847,0.406350851907277,0.398926775865922,19.75
0.360238709917571,0.442796286731874,0.399721407954564,0.392186063825244,20
0.35446393546449,0.435627697093356,0.393280476229656,0.385640882353724,20.25
0.348850900063724,0.42866100300548,0.387020466956004,0.379283249334171,20.5
0.343393183139221,0.421888158853041,0.380934183528693,0.373105600546116,20.75
0.338084692260988,0.41530153143137,0.375014797717195,0.367100763082855,21
0.332919642717412,0.408893874212045,0.369255826704914,0.361261930751682,21.25
0.32789253858159,0.402658303494456,0.36365111180971,0.355582641288076,21.5
0.322998155146503,0.39658827628497,0.358194798744471,0.350056755230807,21.75
0.318231522615676,0.390677569760375,0.352881319290075,0.344678436319426,22
0.313587910946504,0.384920262185637,0.347705374264956,0.339442133288591,22.25
0.3090628157529,0.379310715167997,0.342661917686205,0.334342562945313,22.5
0.304651945182419,0.373843557140194,0.337746142026662,0.329374694425626,22.75
0.300351207690646,0.368513667975256,0.332953464481094,0.324533734536592,23
0.296156700642542,0.363316164644041,0.328279514162317,0.319815114097962,23.25
0.292064699676601,0.358246387834513,0.32372012015506,0.31521447520544,23.5
0.288071648773313,0.353299889458839,0.319271300361731,0.310727659344325,23.75
0.284174150974429,0.348472420980792,0.314929251079867,0.306350696288509,24
0.280368959704147,0.343759922501691,0.310690337256268,0.302079793725394,24.25
0.276652970647427,0.339158512548369,0.306551083367406,0.297911327552345,24.5
0.273023214144417,0.33466447851139,0.302508164879975,0.29384183279488,24.75
0.269476848063377,0.330274267686025,0.298558400249246,0.289867995100963,25
0.26601115111755,0.325984478872409,0.294698743416367,0.285986642769504,25.25
0.262623516594256,0.321791854494858,0.29092627676893,0.282194739274632,25.5
0.259311446467041,0.317693273203511,0.287238204531977,0.278489376250392,25.75
0.256072545864012,0.313685742924457,0.283631846559249,0.274867766903364,26
0.252904517867651,0.309766394327143,0.28010463249686,0.271327239823282,26.25
0.249805158623284,0.305932474680301,0.276654096293765,0.267865233164079,26.5
0.246772352735198,0.302181342069907,0.273277871035366,0.264479289169956,26.75
0.243804068930969,0.29851045995466,0.269973684078423,0.261167049022991,27
0.240898355976076,0.294917392036385,0.266739352467102,0.257926247990651,27.25
0.238053338822205,0.291399797424443,0.263572778611507,0.25475471085318,27.5
0.235267214973889,0.28795542607481,0.260471946211441,0.251650347592345,27.75
0.232538251059283,0.284582114485906,0.257434916409413,0.248611149324406,28
0.229864779591892,0.281277781634585,0.254459824158098,0.245635184461445,28.25
0.227245195911043,0.278040425136892,0.251544874788504,0.24272059508634,28.5
0.224677955289769,0.274868117619328,0.248688340766125,0.23986559352774,28.75
0.22216157019958,0.271759003287346,0.245888558623247,0.237068459122382,29
0.219694607722347,0.268711294678785,0.243143926056418,0.234327535152998,29.25
0.217275687100207,0.265723269590782,0.240452899178869,0.231641225950867,29.5
0.214903477415025,0.262793268169522,0.237813989918382,0.229007994152872,29.75
0.21257669538956,0.259919690152908,0.235225763551764,0.226426358103595,30
0.210294103302974,0.257100992256925,0.232686836367673,0.223894889393644,30.25
0.208054507013875,0.25433568569709,0.230195873450139,0.221412210526022,30.5
0.205856754084503,0.251622333836972,0.227751586575604,0.218976992702887,30.75
0.203699732000114,0.248959549956288,0.225352732216795,0.216587953725568,31
0.201582366478019,0.246345995131598,0.22299810964721,0.214243856001197,31.25
0.199503619861069,0.243780376223059,0.220686559140372,0.211943504649722,31.5
0.197462489590762,0.241261443961152,0.218416960258411,0.209685745705514,31.75
0.195458006755415,0.238787991127658,0.216188230224888,0.207469464408137,32
0.193489234709166,0.236358850825568,0.213999322377075,0.205293583577188,32.25
0.191555267757838,0.233972894832914,0.211849224693251,0.203157062066489,32.5
0.189655229907933,0.231629032035841,0.209736958390823,0.201058893293144,32.75
0.187788273675273,0.229326206936545,0.207661576591357,0.19899810383733,33
0.185953578950019,0.227063398231961,0.205622163048844,0.19697375210889,33.25
0.184150351915,0.224839617459333,0.20361783093777,0.194984927077086,33.5
0.182377824014463,0.222653907705064,0.201647721697737,0.193030747060055,33.75
0.180635250970557,0.220505342373439,0.199711003931612,0.191110358570769,34
0.178921911844996,0.218393024012021,0.197806872354355,0.189222935216441,34.25
0.177237108143515,0.216316083190734,0.195934546789831,0.187367676648559,34.5
0.175580162960884,0.214273677431801,0.194093271213102,0.185543807560853,34.75
0.173950420164353,0.212264990187885,0.192282312835817,0.183750576732689,35
0.172347243613554,0.210289229865943,0.190500961232475,0.181987256115524,35.25
0.170770016414974,0.208345628894427,0.188748527505453,0.180253139960191,35.5
0.169218140209249,0.206433442831631,0.18702434348683,0.17854754398292,35.75
0.167691034489604,0.204551949513088,0.185327760975133,0.176869804568111,36
0.166188135949888,0.202700448236056,0.183658151005248,0.175219278006014,36.25
0.164708897860705,0.200878258979229,0.182014903149846,0.173595339763535,36.5
0.163252789472268,0.199084721655927,0.180397424850748,0.171997383786545,36.75
0.161819295442645,0.197319195399118,0.178805140778755,0.170424821832088,37
0.160407915290159,0.195581057876696,0.177237492220559,0.168877082829056,37.25
0.159018162868768,0.193869704635558,0.1756939364914,0.167353612265906,37.5
0.157649565865314,0.192184548473074,0.174173946372235,0.165853871604114,37.75
0.156301665317593,0.190525018834641,0.172677009570243,0.164377337716128,38
0.154974015152249,0.188890561236074,0.171202628201545,0.162923502346632,38.25
0.15366618174156,0.187280636709647,0.169750318295093,0.161491871596023,38.5
0.152377743478223,0.185694721272685,0.168319609316724,0.160081965425028,38.75
0.151108290367292,0.184132305417639,0.166910043712444,0.158693317179494,39
0.149857423634487,0.182592893622644,0.16552117647004,0.157325473134374,39.25
0.148624755350095,0.181076003881624,0.164152574698175,0.155977992056045,39.5
0.147409908067774,0.179581167253028,0.162803817222172,0.154650444782095,39.75
0.146212514477557,0.178107927426364,0.161474494195705,0.153342413817781,40
